# EXAMPLE CALCULATION FOURIER

# Solution by 50-term Fourier series

# Surface of wave - trough-crest-trough, note quadratic point spacing clustered around crest
# Non-dimensionalised with respect to depth
# X/d, eta/d, & check of surface pressure

0.	0.	0. # Dummy point to scale plot

 -7.8827	 0.8978	  1e-15
 -7.2647	 0.8979	 -6e-09
 -6.6719	 0.8981	 -4e-08
 -6.1044	 0.8987	 -6e-08
 -5.5620	 0.8997	  8e-08
 -5.0449	 0.9015	 -1e-14
 -4.5531	 0.9046	 -6e-08
 -4.0864	 0.9097	  5e-08
 -3.6450	 0.9176	  9e-08
 -3.2288	 0.9296	 -3e-07
 -2.8378	 0.9471	  9e-16
 -2.4720	 0.9717	  3e-07
 -2.1315	 1.0045	  5e-07
 -1.8162	 1.0465	  6e-07
 -1.5261	 1.0974	  6e-07
 -1.2612	 1.1561	  8e-14
 -1.0216	 1.2201	 -8e-07
 -0.8072	 1.2859	  3e-07
 -0.6180	 1.3490	  2e-07
 -0.4540	 1.4041	 -3e-07
 -0.3153	 1.4470	 -1e-12
 -0.2018	 1.4753	  4e-07
 -0.1135	 1.4904	 -2e-07
 -0.0504	 1.4963	 -1e-07
 -0.0126	 1.4977	 -8e-09
  0.0000	 1.4978	 -8e-12
  0.0126	 1.4977	 -8e-09
  0.0504	 1.4963	 -1e-07
  0.1135	 1.4904	 -2e-07
  0.2018	 1.4753	  4e-07
  0.3153	 1.4470	 -1e-12
  0.4540	 1.4041	 -3e-07
  0.6180	 1.3490	  2e-07
  0.8072	 1.2859	  3e-07
  1.0216	 1.2201	 -8e-07
  1.2612	 1.1561	  8e-14
  1.5261	 1.0974	  6e-07
  1.8162	 1.0465	  6e-07
  2.1315	 1.0045	  5e-07
  2.4720	 0.9717	  3e-07
  2.8378	 0.9471	  9e-16
  3.2288	 0.9296	 -3e-07
  3.6450	 0.9176	  9e-08
  4.0864	 0.9097	  5e-08
  4.5531	 0.9046	 -6e-08
  5.0449	 0.9015	 -1e-14
  5.5620	 0.8997	  8e-08
  6.1044	 0.8987	 -6e-08
  6.6719	 0.8981	 -4e-08
  7.2647	 0.8979	 -6e-09
  7.8827	 0.8978	  1e-15

